Time,Angle
0.033333333,47.90774218
0.066666667,44.52397166
0.1,43.02886619
0.133333333,43.77082859
0.166666667,45.56473783
0.2,47.15863038
0.233333333,48.20535439
0.266666667,47.88316466
0.3,46.28501989
0.333333333,43.62261474
0.366666667,41.1001017
0.4,38.96008571
0.433333333,38.02279665
0.466666667,38.19652332
0.5,39.09352922
0.533333333,40.21833879
0.566666667,41.01259801
0.6,41.22396675
0.633333333,41.22182583
0.666666667,40.70791948
0.7,39.02887934
0.733333333,37.43991114
0.766666667,35.68881619
0.8,33.59250963
0.833333333,31.17709529
0.866666667,28.88012714
0.9,27.16899115
0.933333333,25.85085261
0.966666667,24.58885757
1,23.09364614
1.033333333,21.2834957
1.066666667,19.22013633
1.1,16.6147869
1.133333333,13.79759536
1.166666667,11.68884442
1.2,10.9487299
1.233333333,7.178234229
1.266666667,-2.179566051
1.3,-17.97006837
1.333333333,-32.95918492
1.366666667,-38.39754159
1.4,-39.60815177
1.433333333,-40.93631359
1.466666667,-43.76351364
1.5,-45.73325091
1.533333333,-43.71233153
1.566666667,-43.15645924
1.6,-44.2602965
1.633333333,-44.58468834
1.666666667,-41.88737331
1.7,-39.84328512
1.733333333,-43.78081968
1.766666667,-51.1695311
1.8,-58.75060577
1.833333333,-64.80490693
1.866666667,-72.92368797
1.9,-86.30154979
1.933333333,-106.8490958
1.966666667,-116.6769407
2,-123.3670055
2.033333333,-127.6785343
2.066666667,-132.2596943
2.1,-136.9246579
2.133333333,-140.8686686
2.166666667,-143.5737608
2.2,-143.932315
2.233333333,-141.5625805
2.266666667,-138.0625327
2.3,-135.4328404
2.333333333,-134.9496157
2.366666667,-136.7451642
2.4,-139.494111
2.433333333,-140.770798
2.466666667,-140.4184126
2.5,-142.3836354
2.533333333,-144.9513218
2.566666667,-146.8033073
2.6,-147.4553034
2.633333333,-147.7288094
2.666666667,-148.5983487
2.7,-150.1848308
2.733333333,-151.9759387
2.766666667,-154.2501656
2.8,-156.8249323
2.833333333,-159.2693948
2.866666667,-162.1253276
2.9,-164.5256714
2.933333333,-166.8791749
2.966666667,-168.0790546
3,-168.9119917
3.033333333,-173.6537614
3.066666667,-183.5969402
3.1,-197.9571034
3.133333333,-212.3583291
3.166666667,-219.4408078
3.2,-220.4460455
3.233333333,-220.0134278
3.266666667,-219.6815077
3.3,-220.5782106
3.333333333,-219.6898659
3.366666667,-218.1469252
3.4,-217.4256415
3.433333333,-216.710623
3.466666667,-214.3685807
3.5,-211.8468915
3.533333333,-214.2530704
3.566666667,-220.2562495
3.6,-225.9131834
3.633333333,-229.2204912
3.666666667,-231.3386557
3.7,-235.1111616
3.733333333,-240.2590345
3.766666667,-247.8737284
3.8,-257.5259493
3.833333333,-269.5513654
3.866666667,-287.0792803
3.9,-296.4457203
3.933333333,-304.9171758
3.966666667,-312.0586881
4,-317.6290602
4.033333333,-319.4384625
4.066666667,-318.8134657
4.1,-317.4093788
4.133333333,-316.1223891
4.166666667,-315.8584392
4.2,-316.0724798
4.233333333,-316.4141018
4.266666667,-316.9037854
4.3,-317.9466904
4.333333333,-320.0353409
4.366666667,-321.9600061
4.4,-322.2024825
4.433333333,-320.475897
4.466666667,-319.0350585
4.5,-319.9565974
4.533333333,-321.4995792
4.566666667,-322.4333545
4.6,-323.3185413
4.633333333,-324.4730241
4.666666667,-326.6598163
4.7,-329.4701457
4.733333333,-332.2350336
4.766666667,-334.8499081
4.8,-337.0172185
4.833333333,-339.1121007
4.866666667,-341.0216615
4.9,-342.717927
4.933333333,-344.4138834
4.966666667,-346.3500885
5,-347.3531382
5.033333333,-348.2609292
5.066666667,-352.2835064
5.1,-359.9202383
5.133333333,-373.3092184
5.166666667,-389.2761348
5.2,-398.8669539
5.233333333,-400.1453211
5.266666667,-400.082392
5.3,-399.981504
5.333333333,-400.4275524
5.366666667,-399.680728
5.4,-398.1345768
5.433333333,-398.1204611
5.466666667,-398.445564
5.5,-396.9394033
5.533333333,-393.7080988
5.566666667,-394.4330224
5.6,-400.0798476
5.633333333,-406.9034903
5.666666667,-411.7014996
5.7,-415.5792522
5.733333333,-420.4648128
5.766666667,-427.8526889
5.8,-440.3744715
5.833333333,-454.9713285
5.866666667,-470.9884693
5.9,-478.4238103
5.933333333,-485.709845
5.966666667,-493.1571485
6,-499.4919053
6.033333333,-503.3792738
6.066666667,-504.0275992
6.1,-502.0577222
6.133333333,-498.8596428
6.166666667,-496.4780345
6.2,-495.7122764
6.233333333,-496.728349
6.266666667,-498.6978879
6.3,-500.7157222
6.333333333,-501.1961633
6.366666667,-500.4549223
6.4,-502.6294915
6.433333333,-505.6243479
6.466666667,-507.9355478
6.5,-509.2847934
6.533333333,-510.4746138
6.566666667,-511.9333535
6.6,-513.6661445
6.633333333,-515.4306096
6.666666667,-517.3711813
6.7,-517.671299
6.733333333,-519.2605878
6.766666667,-522.3349232
6.8,-525.5238502
6.833333333,-528.2744235
6.866666667,-530.8920332
6.9,-536.4320082
6.933333333,-548.7994839
6.966666667,-564.3179107
7,-574.5310705
7.033333333,-577.4251417
7.066666667,-579.3090121
7.1,-580.5104787
7.133333333,-582.9315255
7.166666667,-582.8159243
7.2,-581.7799398
7.233333333,-581.8301491
7.266666667,-582.2391817
7.3,-580.5994915
7.333333333,-577.4790669
7.366666667,-577.4209157
7.4,-581.8788935
7.433333333,-588.5845792
7.466666667,-594.2268694
7.5,-598.7717285
7.533333333,-604.1406517
7.566666667,-613.2194939
7.6,-626.7046506
7.633333333,-642.4432706
7.666666667,-655.3556456
7.7,-662.0324883
7.733333333,-668.3471037
7.766666667,-675.88501
7.8,-682.2016639
7.833333333,-685.0511877
7.866666667,-684.6151822
7.9,-681.6508719
7.933333333,-677.8294104
7.966666667,-675.3834335
8,-674.8258835
8.033333333,-676.2283326
8.066666667,-678.7818424
8.1,-681.1262611
8.133333333,-681.7004888
8.166666667,-680.6452454
8.2,-681.8994274
8.233333333,-684.0713411
8.266666667,-685.6584923
8.3,-686.3642374
8.333333333,-686.9117843
8.366666667,-688.0512342
8.4,-689.7919238
8.433333333,-691.8033452
8.466666667,-694.1087416
8.5,-696.6071345
8.533333333,-698.8060896
8.566666667,-701.4765482
8.6,-704.0487638
8.633333333,-706.4630836
8.666666667,-708.0362494
8.7,-708.4749449
8.733333333,-712.033472
8.766666667,-719.9328632
8.8,-733.3723914
8.833333333,-748.5063034
8.866666667,-758.1202422
8.9,-760.5209947
8.933333333,-760.481298
8.966666667,-760.1270048
9,-760.6528486
9.033333333,-760.2513421
9.066666667,-758.5219653
9.1,-757.6484003
9.133333333,-757.1537567
9.166666667,-755.2974441
9.2,-752.2823735
9.233333333,-753.2932463
9.266666667,-758.6580868
9.3,-764.4955229
9.333333333,-768.2327811
9.366666667,-770.2279679
9.4,-773.1072259
9.433333333,-777.5435678
9.466666667,-783.2527038
9.5,-791.1403239
9.533333333,-801.2644006
9.566666667,-814.1525482
9.6,-830.4083439
9.633333333,-839.7144668
9.666666667,-847.4394978
9.7,-854.6773942
9.733333333,-859.2300216
9.766666667,-860.3307584
9.8,-859.6513871
9.833333333,-858.3047958
9.866666667,-857.8571777
9.9,-857.9825788
9.933333333,-858.2306456
9.966666667,-858.3662875
10,-858.4799895
10.03333333,-859.3122547
10.06666667,-860.2614246
10.1,-859.6288673
10.13333333,-861.2002969
10.16666667,-863.6752801
10.2,-865.9822063
10.23333333,-867.5865909
10.26666667,-868.8683028
10.3,-870.0930725
10.33333333,-871.6918667
10.36666667,-873.3850139
10.4,-875.3563017
10.43333333,-877.3547769
10.46666667,-878.9705144
10.5,-881.5652072
10.53333333,-884.7632079
10.56666667,-887.0697951
10.6,-888.5850262
10.63333333,-890.5672645
10.66666667,-896.4838358
10.7,-909.2249004
10.73333333,-924.906769
10.76666667,-935.318886
10.8,-939.0872897
10.83333333,-940.6482067
10.86666667,-940.4936308
10.9,-940.8885824
10.93333333,-940.9786187
10.96666667,-939.8695445
11,-939.3444626
11.03333333,-938.3426757
11.06666667,-935.8161977
11.1,-932.0766845
11.13333333,-931.643713
11.16666667,-936.3824463
11.2,-942.1224036
11.23333333,-946.1503624
11.26666667,-948.5490589
11.3,-950.9821879
11.33333333,-955.1249304
11.36666667,-960.4132653
11.4,-967.5121052
11.43333333,-976.2020807
11.46666667,-988.1885456
11.5,-1006.362313
11.53333333,-1016.124699
11.56666667,-1024.642495
11.6,-1031.817782
