Time 4505,Angle 4505
0,0
0.01,-0.000457587
0.02,-0.001828832
0.03,-0.004111963
0.04,-0.007305849
0.05,-0.011409997
0.06,-0.016424547
0.07,-0.02235027
0.08,-0.029188555
0.09,-0.036941406
0.1,-0.04561143
0.11,-0.055201826
0.12,-0.065716367
0.13,-0.077159382
0.14,-0.089535732
0.15,-0.10285078
0.16,-0.117110346
0.17,-0.132320665
0.18,-0.148488321
0.19,-0.165620174
0.2,-0.183723264
0.21,-0.202804703
0.22,-0.222871533
0.23,-0.243930564
0.24,-0.265988177
0.25,-0.289050094
0.26,-0.313121118
0.27,-0.338204799
0.28,-0.364303111
0.29,-0.391416044
0.3,-0.419541173
0.31,-0.448673197
0.32,-0.478803449
0.33,-0.5099194
0.34,-0.542004182
0.35,-0.575036138
0.36,-0.608988447
0.37,-0.643828843
0.38,-0.679519481
0.39,-0.716016959
0.4,-0.753272523
0.41,-0.791232487
0.42,-0.82983886
0.43,-0.869030151
0.44,-0.908742343
0.45,-0.948909966
0.46,-0.98946723
0.47,-1.03034915
0.48,-1.071492594
0.49,-1.112837213
0.5,-1.154326216
0.51,-1.195906945
0.52,-1.23753127
0.53,-1.279155783
0.54,-1.32074183
0.55,-1.362255386
0.56,-1.403666817
0.57,-1.44495055
0.58,-1.486084681
0.59,-1.52705055
0.6,-1.567832294
0.61,-1.608416408
0.62,-1.648791318
0.63,-1.688946972
0.64,-1.728874476
0.65,-1.768565748
0.66,-1.808013222
0.67,-1.84720958
0.68,-1.886147535
0.69,-1.924819642
0.7,-1.963218154
0.71,-2.001334911
0.72,-2.039161266
0.73,-2.076688044
0.74,-2.113905534
0.75,-2.150803504
0.76,-2.18737124
0.77,-2.223597616
0.78,-2.259471161
0.79,-2.294980156
0.8,-2.330112727
0.81,-2.36485694
0.82,-2.399200903
0.83,-2.433132847
0.84,-2.46664123
0.85,-2.499714785
0.86,-2.532342587
0.87,-2.564514119
0.88,-2.596219292
0.89,-2.627448477
0.9,-2.658192521
0.91,-2.688442758
0.92,-2.718191005
0.93,-2.747429561
0.94,-2.776151203
0.95,-2.804349174
0.96,-2.832017178
0.97,-2.859149359
0.98,-2.885740316
0.99,-2.911785098
1,-2.937279191
1.01,-2.96221852
1.02,-2.986599469
1.03,-3.010418882
1.04,-3.033674073
1.05,-3.056362835
1.06,-3.078483462
1.07,-3.100034751
1.08,-3.121016027
1.09,-3.141427145
1.1,-3.161268507
1.11,-3.180541065
1.12,-3.199246343
1.13,-3.217386422
1.14,-3.234963945
1.15,-3.251982117
1.16,-3.268444702
1.17,-3.284356019
1.18,-3.299720915
1.19,-3.314544759
1.2,-3.328833428
1.21,-3.342593284
1.22,-3.35583115
1.23,-3.368554292
1.24,-3.380770391
1.25,-3.392487518
1.26,-3.403714111
1.27,-3.414458943
1.28,-3.424731103
1.29,-3.434539962
1.3,-3.443895152
1.31,-3.452806544
1.32,-3.461284216
1.33,-3.469338437
1.34,-3.476979646
1.35,-3.484218427
1.36,-3.49106549
1.37,-3.497531656
1.38,-3.503627839
1.39,-3.509365032
1.4,-3.514754294
1.41,-3.519806733
1.42,-3.524533499
1.43,-3.528945773
1.44,-3.533054758
1.45,-3.536871669
1.46,-3.540407729
1.47,-3.543674161
1.48,-3.546682183
1.49,-3.549443004
1.5,-3.55196782
1.51,-3.554267808
1.52,-3.556354128
1.53,-3.558237918
1.54,-3.559930291
1.55,-3.561442336
1.56,-3.562785115
1.57,-3.563969662
1.58,-3.565006984
1.59,-3.565908058
1.6,-3.566683835
1.61,-3.567345233
1.62,-3.567903142
1.63,-3.568368422
1.64,-3.568751906
1.65,-3.569064393
1.66,-3.569316657
1.67,-3.56951944
1.68,-3.569683455
1.69,-3.569819388
1.7,-3.569937893
1.71,-3.570049598
1.72,-3.570165102
1.73,-3.570294973
1.74,-3.570449755
1.75,-3.570639962
1.76,-3.570876079
1.77,-3.571168565
1.78,-3.571527852
1.79,-3.571964344
1.8,-3.572488418
1.81,-3.573110424
1.82,-3.573840685
1.83,-3.574689499
1.84,-3.575667136
1.85,-3.57678384
1.86,-3.578049826
1.87,-3.579475286
1.88,-3.581070381
1.89,-3.582845247
1.9,-3.584809989
1.91,-3.586974683
1.92,-3.589349374
1.93,-3.591944077
1.94,-3.594768772
1.95,-3.597833398
1.96,-3.601147859
1.97,-3.604722009
1.98,-3.608565658
1.99,-3.612688563
2,-3.617100423
2.01,-3.62181087
2.02,-3.626829463
2.03,-3.632165675
2.04,-3.637828886
2.05,-3.643828372
2.06,-3.650173289
2.07,-3.656872659
2.08,-3.663935351
2.09,-3.671370063
2.1,-3.6791853
2.11,-3.687389352
2.12,-3.695990266
2.13,-3.704995818
2.14,-3.714413484
2.15,-3.724250402
2.16,-3.734513338
2.17,-3.74520865
2.18,-3.756342241
2.19,-3.767919519
2.2,-3.779945349
2.21,-3.792424007
2.22,-3.805359131
2.23,-3.818753668
2.24,-3.83260983
2.25,-3.846929034
2.26,-3.861711865
2.27,-3.876958023
2.28,-3.892666282
2.29,-3.908834452
2.3,-3.925459344
2.31,-3.942536749
2.32,-3.960061415
2.33,-3.978027042
2.34,-3.996426282
2.35,-4.015250753
2.36,-4.034491064
2.37,-4.054136847
2.38,-4.074176814
2.39,-4.094598813
2.4,-4.115389902
2.41,-4.136536432
2.42,-4.158024141
2.43,-4.179838253
2.44,-4.201963586
2.45,-4.224384662
2.46,-4.247085816
2.47,-4.270051313
2.48,-4.293265451
2.49,-4.316712668
2.5,-4.340377639
2.51,-4.364245363
2.52,-4.388301244
2.53,-4.412531157
2.54,-4.436921507
2.55,-4.46145927
2.56,-4.486132029
2.57,-4.510927991
2.58,-4.535836
2.59,-4.560845528
2.6,-4.585946668
2.61,-4.611130112
2.62,-4.636387117
2.63,-4.661709469
2.64,-4.687089439
2.65,-4.712519735
2.66,-4.737993442
2.67,-4.763503971
2.68,-4.789044993
2.69,-4.814610381
2.7,-4.840194142
2.71,-4.865790357
2.72,-4.891393115
2.73,-4.916996451
2.74,-4.942594287
2.75,-4.968180368
2.76,-4.99374821
2.77,-5.019291047
2.78,-5.044801778
2.79,-5.070272926
2.8,-5.095696598
2.81,-5.121064444
2.82,-5.146367635
2.83,-5.171596835
2.84,-5.196742185
2.85,-5.221793292
2.86,-5.246739222
2.87,-5.271568507
2.88,-5.296269149
2.89,-5.320828633
2.9,-5.345233954
2.91,-5.369471638
2.92,-5.39352777
2.93,-5.417388036
2.94,-5.441037756
2.95,-5.464461926
2.96,-5.487645266
2.97,-5.510572259
2.98,-5.533227199
2.99,-5.555594239
3,-5.577657435
3.01,-5.599400784
3.02,-5.620808276
3.03,-5.641863931
3.04,-5.662551837
3.05,-5.682856182
3.06,-5.702761295
3.07,-5.722251674
3.08,-5.741312019
3.09,-5.759927254
3.1,-5.778082558
3.11,-5.795763386
3.12,-5.812955494
3.13,-5.829644963
3.14,-5.845818215
3.15,-5.861462039
3.16,-5.876563605
3.17,-5.891110489
3.18,-5.905090692
3.19,-5.918492655
3.2,-5.931305282
3.21,-5.943517958
3.22,-5.955120565
3.23,-5.966103505
3.24,-5.976457712
3.25,-5.98617467
3.26,-5.995246436
3.27,-6.003665655
3.28,-6.011425568
3.29,-6.01852003
3.3,-6.024943525
3.31,-6.030691179
3.32,-6.03575877
3.33,-6.040142737
3.34,-6.043840188
3.35,-6.046848909
3.36,-6.049167369
3.37,-6.050794726
3.38,-6.051730829
3.39,-6.051976216
3.4,-6.05153212
3.41,-6.050400464
3.42,-6.048583858
3.43,-6.046085596
3.44,-6.042909651
3.45,-6.039060664
3.46,-6.034543939
3.47,-6.029365431
3.48,-6.023531737
3.49,-6.01705008
3.5,-6.009928298
3.51,-6.002174827
3.52,-5.993798688
3.53,-5.984809468
3.54,-5.975217302
3.55,-5.965032856
3.56,-5.954267306
3.57,-5.94293232
3.58,-5.931040037
3.59,-5.918603048
3.6,-5.905634373
3.61,-5.892147443
3.62,-5.878156075
3.63,-5.863674456
3.64,-5.848717117
3.65,-5.833298918
3.66,-5.817435018
3.67,-5.801140863
3.68,-5.784432157
3.69,-5.767324845
3.7,-5.749835086
3.71,-5.731979234
3.72,-5.71377381
3.73,-5.69523548
3.74,-5.676381027
3.75,-5.657227322
3.76,-5.6377913
3.77,-5.618089924
3.78,-5.598140155
3.79,-5.577958921
3.8,-5.55756308
3.81,-5.536969385
3.82,-5.516194445
3.83,-5.495254694
3.84,-5.474166347
3.85,-5.452945367
3.86,-5.431607424
3.87,-5.410167866
3.88,-5.388641678
3.89,-5.367043456
3.9,-5.345387373
3.91,-5.323687156
3.92,-5.301956061
3.93,-5.280206855
3.94,-5.258451799
3.95,-5.236702641
3.96,-5.214970602
3.97,-5.19326638
3.98,-5.171600147
3.99,-5.149981562
4,-5.12841977
4.01,-5.106923426
4.02,-5.085500707
4.03,-5.064159335
4.04,-5.042906599
4.05,-5.021749384
4.06,-5.000694195
4.07,-4.979747193
4.08,-4.958914223
4.09,-4.938200851
4.1,-4.917612391
4.11,-4.89715395
4.12,-4.876830454
4.13,-4.856646686
4.14,-4.836607319
4.15,-4.816716952
4.16,-4.79698014
4.17,-4.777401424
4.18,-4.757985364
4.19,-4.738736563
4.2,-4.719659696
4.21,-4.700759531
4.22,-4.682040952
4.23,-4.663508977
4.24,-4.645168771
4.25,-4.627025661
4.26,-4.609085152
4.27,-4.591352927
4.28,-4.573834843
4.29,-4.556536945
4.3,-4.53946546
4.31,-4.522626789
4.32,-4.506027495
4.33,-4.489674295
4.34,-4.473574035
4.35,-4.457733677
4.36,-4.442160284
4.37,-4.426860988
4.38,-4.411842963
4.39,-4.397113402
4.4,-4.382679483
4.41,-4.368548337
4.42,-4.354727023
4.43,-4.341222488
4.44,-4.328041534
4.45,-4.315190791
4.46,-4.302676681
4.47,-4.29050539
4.48,-4.278682832
4.49,-4.267214621
4.5,-4.256106052
4.51,-4.245362071
4.52,-4.234987252
4.53,-4.224985776
4.54,-4.215361417
4.55,-4.206117525
4.56,-4.197257014
4.57,-4.188782351
4.58,-4.18069555
4.59,-4.172998168
4.6,-4.1656913
4.61,-4.158775583
4.62,-4.152251195
4.63,-4.146117861
4.64,-4.14037486
4.65,-4.135021029
4.66,-4.130054779
4.67,-4.125474101
4.68,-4.121276579
4.69,-4.117459407
4.7,-4.114019399
4.71,-4.110953005
4.72,-4.10825633
4.73,-4.105925146
4.74,-4.103954912
4.75,-4.102340791
4.76,-4.101077664
4.77,-4.100160154
4.78,-4.099582637
4.79,-4.099339264
4.8,-4.099423977
4.81,-4.099830527
4.82,-4.100552492
4.83,-4.101583295
4.84,-4.102916218
4.85,-4.104544423
4.86,-4.106460966
4.87,-4.108658815
4.88,-4.111130864
4.89,-4.113869953
4.9,-4.116868877
4.91,-4.120120409
4.92,-4.123617308
4.93,-4.127352336
4.94,-4.131318273
4.95,-4.135507929
4.96,-4.139914158
4.97,-4.144529869
4.98,-4.149348041
4.99,-4.154361732
5,-4.159564088
5.01,-4.164948362
5.02,-4.170507913
5.03,-4.176236224
5.04,-4.182126906
5.05,-4.188173708
5.06,-4.194370525
5.07,-4.200711402
5.08,-4.207190545
5.09,-4.213802324
5.1,-4.220541277
5.11,-4.227402117
5.12,-4.234379736
5.13,-4.241469205
5.14,-4.24866578
5.15,-4.255964903
5.16,-4.263362204
5.17,-4.2708535
5.18,-4.278434799
5.19,-4.286102296
5.2,-4.293852376
5.21,-4.30168161
5.22,-4.309586755
5.23,-4.317564753
5.24,-4.32561273
5.25,-4.333727985
5.26,-4.341907999
5.27,-4.350150424
5.28,-4.35845308
5.29,-4.366813955
5.3,-4.375231197
5.31,-4.383703112
5.32,-4.392228158
5.33,-4.400804941
5.34,-4.409432213
5.35,-4.418108862
5.36,-4.426833909
5.37,-4.435606508
5.38,-4.444425933
5.39,-4.453291578
5.4,-4.46220295
5.41,-4.471159666
5.42,-4.480161444
5.43,-4.489208103
5.44,-4.498299555
5.45,-4.507435799
5.46,-4.51661692
5.47,-4.525843083
5.48,-4.535114524
5.49,-4.544431553
5.5,-4.553794544
5.51,-4.563203932
5.52,-4.572660212
5.53,-4.58216393
5.54,-4.591715682
5.55,-4.601316113
5.56,-4.610965909
5.57,-4.620665794
5.58,-4.63041653
5.59,-4.640218914
5.6,-4.650073771
5.61,-4.659981957
5.62,-4.669944351
5.63,-4.67996186
5.64,-4.69003541
5.65,-4.700165948
5.66,-4.710354443
5.67,-4.720601877
5.68,-4.730909252
5.69,-4.741277587
5.7,-4.751707914
5.71,-4.762201283
5.72,-4.772758758
5.73,-4.78338142
5.74,-4.794070364
5.75,-4.804826704
5.76,-4.815651572
5.77,-4.826546119
5.78,-4.837511516
5.79,-4.848548957
5.8,-4.859659662
5.81,-4.870844878
5.82,-4.882105879
5.83,-4.893443976
5.84,-4.904860512
5.85,-4.91635687
5.86,-4.927934478
5.87,-4.939594809
5.88,-4.951339387
5.89,-4.963169792
5.9,-4.975087663
5.91,-4.987094707
5.92,-4.9991927
5.93,-5.011383492
5.94,-5.023669018
5.95,-5.036051298
5.96,-5.048532447
5.97,-5.061114682
5.98,-5.073800323
5.99,-5.086591804
6,-5.099491683
6.01,-5.112502644
6.02,-5.125627504
6.03,-5.138869223
6.04,-5.152230913
6.05,-5.165715841
6.06,-5.179327443
6.07,-5.193069325
6.08,-5.206945273
6.09,-5.220959265
6.1,-5.235115474
6.11,-5.249418281
6.12,-5.263872275
6.13,-5.278482266
6.14,-5.293253294
6.15,-5.308190633
6.16,-5.323299802
6.17,-5.338586567
6.18,-5.35405695
6.19,-5.369717237
6.2,-5.385573985
6.21,-5.401634027
6.22,-5.417904474
6.23,-5.434392726
6.24,-5.451106469
6.25,-5.468053687
6.26,-5.485242664
6.27,-5.502681987
6.28,-5.520380549
6.29,-5.538347548
6.3,-5.556592496
6.31,-5.575125216
6.32,-5.593955846
6.33,-5.61309484
6.34,-5.632552974
6.35,-5.652341339
6.36,-5.67247135
6.37,-5.692954751
6.38,-5.713803611
6.39,-5.735030335
6.4,-5.75664767
6.41,-5.778668708
6.42,-5.801106904
6.43,-5.82397608
6.44,-5.847290443
6.45,-5.871064611
6.46,-5.895313618
6.47,-5.920052952
6.48,-5.945298581
6.49,-5.971066974
6.5,-5.997375149
6.51,-6.024240703
6.52,-6.05168185
6.53,-6.079717454
6.54,-6.108367073
6.55,-6.13765099
6.56,-6.16759023
6.57,-6.198206577
6.58,-6.22952257
6.59,-6.26156147
6.6,-6.294347198
6.61,-6.327904241
6.62,-6.362257486
6.63,-6.397432007
6.64,-6.433452771
6.65,-6.470344234
6.66,-6.508129867
6.67,-6.546831527
6.68,-6.586468663
6.69,-6.627057546
6.7,-6.668610198
6.71,-6.71113332
6.72,-6.754627128
6.73,-6.799084199
6.74,-6.844488401
6.75,-6.890813991
6.76,-6.938025008
6.77,-6.986075075
6.78,-7.034907683
6.79,-7.084457014
6.8,-7.134649322
6.81,-7.185404777
6.82,-7.236639675
6.83,-7.288268823
6.84,-7.340207902
6.85,-7.392375656
6.86,-7.44469571
6.87,-7.497097954
6.88,-7.549519425
6.89,-7.601904724
6.9,-7.654206001
6.91,-7.706382592
6.92,-7.758400409
6.93,-7.810231146
6.94,-7.861851391
6.95,-7.913241702
6.96,-7.964385693
6.97,-8.01526916
6.98,-8.065879282
6.99,-8.116203894
7,-8.166230866
7.01,-8.215947564
7.02,-8.265340432
7.03,-8.314394665
7.04,-8.363093995
7.05,-8.411420572
7.06,-8.459354947
7.07,-8.506876132
7.08,-8.55396174
7.09,-8.600588181
7.1,-8.646730889
7.11,-8.692364579
7.12,-8.737463489
7.13,-8.782001622
7.14,-8.825952943
7.15,-8.869291551
7.16,-8.911991797
7.17,-8.954028368
7.18,-8.995376332
7.19,-9.036011153
7.2,-9.075908683
7.21,-9.115045151
7.22,-9.153397144
7.23,-9.190941596
7.24,-9.227655797
7.25,-9.263517421
7.26,-9.298504569
7.27,-9.332595845
7.28,-9.365770449
7.29,-9.398008294
7.3,-9.429290129
7.31,-9.459597682
7.32,-9.488913795
7.33,-9.517222568
7.34,-9.54450948
7.35,-9.570761504
7.36,-9.5959672
7.37,-9.620116779
7.38,-9.643202149
7.39,-9.665216925
7.4,-9.686156417
7.41,-9.706017591
7.42,-9.724799002
7.43,-9.742500712
7.44,-9.759124188
7.45,-9.774672184
7.46,-9.789148615
7.47,-9.802558427
7.48,-9.814907466
7.49,-9.826202339
7.5,-9.836450292
7.51,-9.845659084
7.52,-9.853836874
7.53,-9.860992116
7.54,-9.867133469
7.55,-9.872269711
7.56,-9.876409673
7.57,-9.879562177
7.58,-9.881735997
7.59,-9.882939822
7.6,-9.883182234
7.61,-9.8824717
7.62,-9.880816569
7.63,-9.878225085
7.64,-9.874705406
7.65,-9.870265632
7.66,-9.86491384
7.67,-9.858658129
7.68,-9.851506669
7.69,-9.843467754
7.7,-9.834549863
7.71,-9.824761719
7.72,-9.814112355
7.73,-9.802611175
7.74,-9.79026802
7.75,-9.777093223
7.76,-9.763097673
7.77,-9.748292856
7.78,-9.732690909
7.79,-9.716304648
7.8,-9.699147598
7.81,-9.681234007
7.82,-9.662578851
7.83,-9.643197825
7.84,-9.623107323
7.85,-9.60232441
7.86,-9.580866775
7.87,-9.558752675
7.88,-9.536000878
7.89,-9.512630587
7.9,-9.488661366
7.91,-9.464113058
7.92,-9.4390057
7.93,-9.413359444
7.94,-9.387194471
7.95,-9.360530917
7.96,-9.333388802
7.97,-9.305787962
7.98,-9.277747995
7.99,-9.249288209
8,-9.220427587
8.01,-9.191184755
8.02,-9.161577954
8.03,-9.131625037
8.04,-9.10134345
8.05,-9.070750239
8.06,-9.039862048
8.07,-9.008695123
8.08,-8.977265325
8.09,-8.945588127
8.1,-8.913678629
8.11,-8.88155155
8.12,-8.849221234
8.13,-8.816701639
8.14,-8.784006328
8.15,-8.751148451
8.16,-8.718140729
8.17,-8.684995425
8.18,-8.65172432
8.19,-8.618338686
8.2,-8.584849258
8.21,-8.551266205
8.22,-8.517599113
8.23,-8.483856961
8.24,-8.450048116
8.25,-8.416180322
8.26,-8.382260708
8.27,-8.348295797
8.28,-8.314291529
8.29,-8.280253285
8.3,-8.246185926
8.31,-8.212093839
8.32,-8.17798098
8.33,-8.143850936
8.34,-8.109706977
8.35,-8.075552125
8.36,-8.041389212
8.37,-8.007220948
8.38,-7.973049983
8.39,-7.938878966
8.4,-7.904710614
8.41,-7.870547755
8.42,-7.836393385
8.43,-7.802250711
8.44,-7.768123185
8.45,-7.734014531
8.46,-7.699928765
8.47,-7.665870199
8.48,-7.631843439
8.49,-7.597853362
8.5,-7.563905088
8.51,-7.53000393
8.52,-7.496155342
8.53,-7.462364834
8.54,-7.4286379
8.55,-7.394979907
8.56,-7.361396
8.57,-7.327890988
8.58,-7.294469226
8.59,-7.261134507
8.6,-7.227889952
8.61,-7.19473792
8.62,-7.161679902
8.63,-7.128716481
8.64,-7.095847272
8.65,-7.063070897
8.66,-7.03038499
8.67,-6.997786218
8.68,-6.965270332
8.69,-6.932832238
8.7,-6.900466085
8.71,-6.868165372
8.72,-6.835923065
8.73,-6.803731727
8.74,-6.771583645
8.75,-6.739470966
8.76,-6.707385818
8.77,-6.675320435
8.78,-6.643267268
8.79,-6.611219083
8.8,-6.579169048
8.81,-6.547110805
8.82,-6.515038528
8.83,-6.482946968
8.84,-6.450831483
8.85,-6.418688048
8.86,-6.386513276
8.87,-6.354304411
8.88,-6.322059304
8.89,-6.289776413
8.9,-6.257454775
8.91,-6.225093977
8.92,-6.192694133
8.93,-6.160255857
8.94,-6.127780237
8.95,-6.095268805
8.96,-6.062723522
8.97,-6.030146751
8.98,-5.997541244
8.99,-5.964910127
9,-5.932256886
9.01,-5.899585361
9.02,-5.866899737
9.03,-5.834204535
9.04,-5.801504609
9.05,-5.768805138
9.06,-5.736111615
9.07,-5.703429839
9.08,-5.670765898
9.09,-5.638126153
9.1,-5.605517214
9.11,-5.572945912
9.12,-5.540419269
9.13,-5.507944463
9.14,-5.475528781
9.15,-5.443179589
9.16,-5.41090427
9.17,-5.378710195
9.18,-5.346604664
9.19,-5.314594864
9.2,-5.282687834
9.21,-5.250890416
9.22,-5.219209232
9.23,-5.18765065
9.24,-5.156220768
9.25,-5.124925396
9.26,-5.093770054
9.27,-5.06275998
9.28,-5.031900137
9.29,-5.00119523
9.3,-4.970649743
9.31,-4.940267973
9.32,-4.910054072
9.33,-4.880012103
9.34,-4.850146098
9.35,-4.820460126
9.36,-4.790958365
9.37,-4.761645178
9.38,-4.732525197
9.39,-4.70360341
9.4,-4.674885249
9.41,-4.646376681
9.42,-4.618084301
9.43,-4.59001542
9.44,-4.562178154
9.45,-4.534581511
9.46,-4.507235461
9.47,-4.480151017
9.48,-4.453340284
9.49,-4.426816514
9.5,-4.400594136
9.51,-4.374688775
9.52,-4.349117249
9.53,-4.323897558
9.54,-4.299048844
9.55,-4.274591329
9.56,-4.250546236
9.57,-4.226935705
9.58,-4.203782668
9.59,-4.181110726
9.6,-4.158944004
9.61,-4.137307004
9.62,-4.116224447
9.63,-4.095721113
9.64,-4.075821678
9.65,-4.056550568
9.66,-4.037931805
9.67,-4.019988873
9.68,-4.002744592
9.69,-3.986221013
9.7,-3.970439318
9.71,-3.955419746
9.72,-3.941181529
9.73,-3.927742848
9.74,-3.915120799
9.75,-3.903331374
9.76,-3.892389458
9.77,-3.882308828
9.78,-3.873102165
9.79,-3.864781073
9.8,-3.8573561
9.81,-3.85083676
9.82,-3.845231559
9.83,-3.840548018
9.84,-3.836792693
9.85,-3.833971197
9.86,-3.832088204
9.87,-3.831147464
9.88,-3.831151798
9.89,-3.832103095
9.9,-3.834002296
9.91,-3.836849367
9.92,-3.840643278
9.93,-3.845381959
9.94,-3.851062257
9.95,-3.857679887
9.96,-3.865229369
9.97,-3.873703974
9.98,-3.883095654
9.99,-3.893394979
10,-3.90459107
10.01,-3.916671541
10.02,-3.929622444
10.03,-3.943428216
10.04,-3.958071654
10.05,-3.97353389
10.06,-3.98979439
10.07,-4.006830976
10.08,-4.024619867
10.09,-4.043135747
10.1,-4.06235186
10.11,-4.082240128
10.12,-4.102771303
10.13,-4.123915127
10.14,-4.145640538
10.15,-4.167915864
10.16,-4.190709057
10.17,-4.213987917
10.18,-4.237720326
10.19,-4.261874479
10.2,-4.286419099
10.21,-4.311323647
10.22,-4.336558507
10.23,-4.362095148
10.24,-4.387906263
10.25,-4.413965879
10.26,-4.440249436
10.27,-4.466733845
10.28,-4.493397505
10.29,-4.52022031
10.3,-4.547183616
10.31,-4.574270199
10.32,-4.601464189
10.33,-4.628750986
10.34,-4.656117164
10.35,-4.683550371
10.36,-4.711039209
10.37,-4.738573122
10.38,-4.766142271
10.39,-4.793737411
10.4,-4.821349772
10.41,-4.848970938
10.42,-4.876592727
10.43,-4.904207087
10.44,-4.931805982
10.45,-4.959381299
10.46,-4.986924752
10.47,-5.0144278
10.48,-5.041881571
10.49,-5.0692768
10.5,-5.096603767
10.51,-5.123852256
10.52,-5.151011518
10.53,-5.178070247
10.54,-5.205016565
10.55,-5.231838028
10.56,-5.258521616
10.57,-5.285053762
10.58,-5.311420372
10.59,-5.337606865
10.6,-5.363598217
10.61,-5.389379
10.62,-5.414933442
10.63,-5.440245486
10.64,-5.465298847
10.65,-5.490077077
10.66,-5.514563626
10.67,-5.538741905
10.68,-5.562595343
10.69,-5.58610745
10.7,-5.609261868
10.71,-5.63204242
10.72,-5.654433156
10.73,-5.676418399
10.74,-5.697982783
10.75,-5.719111281
10.76,-5.73978924
10.77,-5.760002408
10.78,-5.779736953
10.79,-5.798979488
10.8,-5.817717088
10.81,-5.835937304
10.82,-5.853628182
10.83,-5.870778274
10.84,-5.88737665
10.85,-5.903412911
10.86,-5.918877201
10.87,-5.933760216
10.88,-5.948053214
10.89,-5.961748026
10.9,-5.974837067
10.91,-5.987313339
10.92,-5.999170448
10.93,-6.010402604
10.94,-6.021004629
10.95,-6.030971968
10.96,-6.04030069
10.97,-6.048987492
10.98,-6.057029701
10.99,-6.064425281
11,-6.071172826
11.01,-6.077271565
11.02,-6.082721358
11.03,-6.087522691
11.04,-6.091676673
11.05,-6.095185033
11.06,-6.098050104
11.07,-6.100274827
11.08,-6.10186273
11.09,-6.102817925
11.1,-6.103145093
11.11,-6.102849472
11.12,-6.101936845
11.13,-6.100413521
11.14,-6.098286327
11.15,-6.095562583
11.16,-6.092250094
11.17,-6.088357125
