Time,Angle
0.008,3.040298204
0.016,3.032485717
0.024,3.024490192
0.032,3.017821948
0.04,3.022047182
0.048,3.031384804
0.056,3.041723454
0.064,3.046250296
0.072,3.048363502
0.08,3.041342492
0.088,3.023250369
0.096,2.994269945
0.104,2.957409303
0.112,2.92419646
0.12,2.898546549
0.128,2.871247274
0.136,2.846220857
0.144,2.803298277
0.152,2.777549918
0.16,2.765516762
0.168,2.759627379
0.176,2.76337381
0.184,2.77509063
0.192,2.778810553
0.2,2.781109913
0.208,2.796396891
0.216,2.801684089
0.224,2.818180009
0.232,2.83524017
0.24,2.856335139
0.248,2.891181223
0.256,2.92625726
0.264,2.954400531
0.272,2.966796379
0.28,2.960582279
0.288,2.944738829
0.296,2.933470117
0.304,2.936923509
0.312,2.956106702
0.32,2.978067685
0.328,2.997456835
0.336,3.00532385
0.344,2.999192537
0.352,2.987243119
0.36,2.983863274
0.368,2.989682788
0.376,3.002344643
0.384,3.019484033
0.392,3.028801398
0.4,3.027624388
0.408,3.020619858
0.416,3.015367146
0.424,3.015620555
0.432,3.022678953
0.44,3.030747096
0.448,3.037476965
0.456,3.036914713
0.464,3.032944822
0.472,3.028552404
0.48,3.026633527
0.488,3.026592582
0.496,3.029350362
0.504,3.035471212
0.512,3.037565588
0.52,3.034093637
0.528,3.032993171
0.536,3.029186932
0.544,3.023836098
0.552,3.010301329
0.56,2.98816893
0.568,2.952540881
0.576,2.913539873
0.584,2.881366552
0.592,2.847424321
0.6,2.815852442
0.608,2.783847254
0.616,2.76780187
0.624,2.759564125
0.632,2.757223812
0.64,2.761485406
0.648,2.779140706
0.656,2.792596047
0.664,2.79799746
0.672,2.798890434
0.68,2.811467169
0.688,2.824642838
0.696,2.845788115
0.704,2.878927121
0.712,2.916091082
0.72,2.94609633
0.728,2.966300799
0.736,2.96682747
0.744,2.954647886
0.752,2.93840684
0.76,2.934587505
0.768,2.948807728
0.776,2.972356582
0.784,2.992618489
0.792,3.006118548
0.8,3.003219037
0.808,2.99305826
0.816,2.984202208
0.824,2.987036167
0.832,2.997521094
0.84,3.013804582
0.848,3.026607425
0.856,3.030152008
0.864,3.020392135
0.872,3.015177243
0.88,3.014585496
0.888,3.020897729
0.896,3.029770605
0.904,3.036617342
0.912,3.038438589
0.92,3.034798653
0.928,3.027529762
0.936,3.019456984
0.944,3.017719193
0.952,3.020893446
0.96,3.028412527
0.968,3.031352847
0.976,3.034489469
0.984,3.030580309
0.992,3.010678439
1,2.977789813
1.008,2.930266729
1.016,2.884393823
1.024,2.849033795
1.032,2.826635003
1.04,2.805513879
1.048,2.78067216
1.056,2.768357246
1.064,2.757765451
1.072,2.753945603
1.08,2.76833925
1.088,2.794123015
1.096,2.803390778
1.104,2.804091636
1.112,2.811217806
1.12,2.81917955
1.128,2.835193102
1.136,2.863576829
1.144,2.900009372
1.152,2.936661515
1.16,2.964306958
1.168,2.971237142
1.176,2.959948389
1.184,2.941840803
1.192,2.928995338
1.2,2.936867651
1.208,2.960613474
1.216,2.984684696
1.224,3.004389544
1.232,3.008004985
1.24,2.997964408
1.248,2.984084367
1.256,2.982083533
1.264,2.989839077
1.272,3.006641806
1.28,3.023147478
1.288,3.031393428
1.296,3.027047379
1.304,3.019160738
1.312,3.015521871
1.32,3.015539458
1.328,3.024191119
1.336,3.03330601
1.344,3.038284848
1.352,3.036730263
1.36,3.0303942
1.368,3.025153757
1.376,3.02108222
1.384,3.023946734
1.392,3.030223788
1.4,3.03734029
1.408,3.040207123
1.416,3.038188326
1.424,3.030941943
1.432,3.023830921
1.44,3.005469092
1.448,2.98090843
1.456,2.947923523
1.464,2.916899765
1.472,2.892294641
1.48,2.863121573
1.488,2.831627327
1.496,2.791814146
1.504,2.771523663
1.512,2.755793626
1.52,2.764823444
1.528,2.759828009
1.536,2.78154114
1.544,2.796049955
1.552,2.802803425
1.56,2.803819915
1.568,2.816587608
1.576,2.833088221
1.584,2.852978429
1.592,2.890524723
1.6,2.929081779
1.608,2.95993265
1.616,2.972311634
1.624,2.965349701
1.632,2.946537113
1.64,2.933157855
1.648,2.935006971
1.656,2.957501518
1.664,2.98211551
1.672,3.004521681
1.68,3.013139159
1.688,3.004904729
1.696,2.993112384
1.704,2.987675625
1.712,2.993480054
1.72,3.008870678
1.728,3.026187724
1.736,3.036222519
1.744,3.031565511
1.752,3.023370165
1.76,3.018698686
1.768,3.020030398
1.776,3.027279782
1.784,3.035616457
1.792,3.040822606
1.8,3.038595444
1.808,3.028758008
1.816,3.018164987
1.824,3.010648458
1.832,3.01228057
1.84,3.018735813
1.848,3.027393736
1.856,3.030842209
1.864,3.019367442
1.872,2.987941801
1.88,2.936309853
1.888,2.879370618
1.896,2.833169677
1.904,2.796670896
1.912,2.77994502
1.92,2.779443733
1.928,2.768206731
1.936,2.763837064
1.944,2.752426496
1.952,2.777823405
1.96,2.80385144
1.968,2.80526676
1.976,2.815396673
1.984,2.817982145
1.992,2.832438177
2,2.847605367
2.008,2.874113594
2.016,2.907629381
2.024,2.940508481
2.032,2.963918818
2.04,2.967339323
2.048,2.956301829
2.056,2.938594274
2.064,2.931027164
2.072,2.943510621
2.08,2.968359686
2.088,2.990695155
2.096,3.006867747
2.104,3.007187716
2.112,2.996220471
2.12,2.98631738
2.128,2.986699287
2.136,2.9963972
2.144,3.01251989
2.152,3.026610528
2.16,3.03226887
2.168,3.022589042
2.176,3.017105743
2.184,3.015676793
2.192,3.020727164
2.2,3.028336519
2.208,3.035590311
2.216,3.037988728
2.224,3.033959038
2.232,3.026073248
2.24,3.016611184
2.248,3.013221388
2.256,3.01654409
2.264,3.020231387
2.272,3.024654025
2.28,3.024201495
2.288,3.014801158
2.296,2.982346592
2.304,2.928902116
2.312,2.869066775
2.32,2.815668001
2.328,2.785120133
2.336,2.773327265
2.344,2.772923425
2.352,2.76804625
2.36,2.758356261
2.368,2.748443778
2.376,2.777381748
2.384,2.804954567
2.392,2.80909379
2.4,2.819812742
2.408,2.820207592
2.416,2.83401317
2.424,2.847946459
2.432,2.871824642
2.44,2.904692143
2.448,2.940254771
2.456,2.965906177
2.464,2.972384423
2.472,2.961227846
2.48,2.944151129
2.488,2.934588361
2.496,2.944455884
2.504,2.968599054
2.512,2.991598476
2.52,3.007903304
2.528,3.00838122
2.536,2.99725722
2.544,2.987107244
2.552,2.987335247
2.56,2.996667329
2.568,3.013171989
2.576,3.02654768
2.584,3.031879536
2.592,3.022487824
2.6,3.017303582
2.608,3.015211845
2.616,3.019261153
2.624,3.028223109
2.632,3.034599515
2.64,3.036915441
2.648,3.032564721
2.656,3.026037322
2.664,3.016613924
2.672,3.013746649
2.68,3.015472892
2.688,3.020915735
2.696,3.024832643
2.704,3.029051119
2.712,3.022928778
2.72,3.00143014
2.728,2.958253897
2.736,2.908066268
2.744,2.854497918
2.752,2.820829972
2.76,2.798850161
2.768,2.778940053
2.776,2.772047056
2.784,2.763193266
2.792,2.751708519
2.8,2.761921675
2.808,2.792207123
2.816,2.807070123
2.824,2.809134488
2.832,2.817112882
2.84,2.821242554
2.848,2.83325721
2.856,2.857204322
2.864,2.892707019
2.872,2.933770278
2.88,2.966481243
2.888,2.97930093
2.896,2.970346033
2.904,2.949133711
2.912,2.931548313
2.92,2.933250516
2.928,2.954557097
2.936,2.983726529
2.944,3.00395751
2.952,3.009475293
2.96,3.000277969
2.968,2.983885686
2.976,2.979008643
2.984,2.984749473
2.992,3.000272913
3,3.01871454
3.008,3.028319038
3.016,3.025663461
3.024,3.015697688
3.032,3.010078916
3.04,3.013127146
3.048,3.017989531
3.056,3.027490058
3.064,3.033835293
3.072,3.033682485
3.08,3.029162384
3.088,3.024856437
3.096,3.0241397
3.104,3.026397309
3.112,3.030146917
